Input,Quad_Value,Baseline,Density
0,0,0.000000,0.093500
1,28,0.108949,0.094305
2,57,0.221790,0.095138
3,85,0.330739,0.095943
4,114,0.443580,0.096777
5,142,0.552529,0.097582
6,170,0.661479,0.098386
7,199,0.774319,0.099220
8,227,0.883268,0.100025
9,363,1.412451,0.103934
10,499,1.941634,0.107843
11,635,2.470817,0.111752
12,770,2.996109,0.115632
13,906,3.525292,0.119541
14,1042,4.054475,0.123450
15,1178,4.583658,0.127359
16,1314,5.112840,0.131269
17,1396,5.431907,0.133625
18,1477,5.747082,0.135954
19,1558,6.062257,0.138282
20,1640,6.381323,0.140639
21,1722,6.700389,0.142996
22,1803,7.015564,0.145324
23,1884,7.330739,0.147652
24,1966,7.649805,0.150009
25,2096,8.155642,0.153746
26,2227,8.665370,0.157511
27,2358,9.175097,0.161276
28,2488,9.680934,0.165013
29,2618,10.186770,0.168750
30,2749,10.696498,0.172515
31,2880,11.206226,0.176280
32,3010,11.712062,0.180017
33,3140,12.217899,0.183754
34,3271,12.727626,0.187519
35,3402,13.237354,0.191284
36,3532,13.743191,0.195021
37,3662,14.249027,0.198758
38,3793,14.758755,0.202523
39,3924,15.268482,0.206288
40,4054,15.774319,0.210025
41,4184,16.280156,0.213762
42,4315,16.789883,0.217527
43,4445,17.295720,0.221263
44,4576,17.805447,0.225029
45,4706,18.311284,0.228765
46,4836,18.817121,0.232502
47,4967,19.326848,0.236267
48,5097,19.832685,0.240004
49,5222,20.319066,0.243597
50,5347,20.805447,0.247190
51,5472,21.291829,0.250783
52,5598,21.782101,0.254404
53,5723,22.268482,0.257997
54,5848,22.754864,0.261590
55,5973,23.241245,0.265183
56,6098,23.727626,0.268776
57,6229,24.237354,0.272541
58,6361,24.750973,0.276335
59,6492,25.260700,0.280101
60,6624,25.774319,0.283895
61,6755,26.284047,0.287660
62,6886,26.793774,0.291426
63,7018,27.307393,0.295220
64,7149,27.817121,0.298985
65,7235,28.151751,0.301457
66,7322,28.490272,0.303958
67,7408,28.824903,0.306430
68,7494,29.159533,0.308901
69,7581,29.498054,0.311402
70,7667,29.832685,0.313874
71,7754,30.171206,0.316375
72,7840,30.505837,0.318847
73,7974,31.027237,0.322698
74,8107,31.544747,0.326521
75,8241,32.066148,0.330373
76,8374,32.583658,0.334195
77,8508,33.105058,0.338047
78,8642,33.626459,0.341899
79,8775,34.143969,0.345721
80,8909,34.665370,0.349573
81,9093,35.381323,0.354862
82,9278,36.101167,0.360179
83,9462,36.817121,0.365468
84,9646,37.533074,0.370757
85,9831,38.252918,0.376074
86,10015,38.968872,0.381363
87,10200,39.688716,0.386681
88,10384,40.404669,0.391969
89,10509,40.891051,0.395562
90,10634,41.377432,0.399155
91,10759,41.863813,0.402748
92,10884,42.350195,0.406341
93,11009,42.836576,0.409934
94,11134,43.322957,0.413527
95,11259,43.809339,0.417120
96,11384,44.295720,0.420712
97,11544,44.918288,0.425311
98,11704,45.540856,0.429910
99,11864,46.163424,0.434509
100,12024,46.785992,0.439108
101,12184,47.408560,0.443707
102,12344,48.031128,0.448306
103,12504,48.653696,0.452905
104,12664,49.276265,0.457504
105,12803,49.817121,0.461499
106,12941,50.354086,0.465466
107,13080,50.894942,0.469461
108,13218,51.431907,0.473427
109,13357,51.972763,0.477423
110,13496,52.513619,0.481418
111,13634,53.050584,0.485385
112,13773,53.591440,0.489380
113,13901,54.089494,0.493059
114,14028,54.583658,0.496709
115,14156,55.081712,0.500389
116,14284,55.579767,0.504068
117,14412,56.077821,0.507747
118,14540,56.575875,0.511426
119,14667,57.070039,0.515076
120,14795,57.568093,0.518756
121,14931,58.097276,0.522665
122,15067,58.626459,0.526574
123,15203,59.155642,0.530483
124,15338,59.680934,0.534363
125,15474,60.210117,0.538272
126,15610,60.739300,0.542181
127,15746,61.268482,0.546090
128,15882,61.797665,0.549999
129,16107,62.673152,0.556467
130,16332,63.548638,0.562934
131,16557,64.424125,0.569401
132,16782,65.299611,0.575868
133,17008,66.178988,0.582364
134,17233,67.054475,0.588831
135,17458,67.929961,0.595299
136,17683,68.805447,0.601766
137,17801,69.264591,0.605158
138,17918,69.719844,0.608520
139,18036,70.178988,0.611912
140,18154,70.638132,0.615304
141,18272,71.097276,0.618696
142,18390,71.556420,0.622087
143,18507,72.011673,0.625450
144,18625,72.470817,0.628842
145,18761,73.000000,0.632751
146,18898,73.533074,0.636689
147,19034,74.062257,0.640598
148,19170,74.591440,0.644507
149,19307,75.124514,0.648445
150,19443,75.653696,0.652354
151,19580,76.186770,0.656292
152,19716,76.715953,0.660201
153,19890,77.392996,0.665202
154,20065,78.073930,0.670232
155,20240,78.754864,0.675262
156,20414,79.431907,0.680263
157,20588,80.108949,0.685265
158,20763,80.789883,0.690295
159,20938,81.470817,0.695325
160,21112,82.147860,0.700326
161,21280,82.801556,0.705155
162,21449,83.459144,0.710013
163,21617,84.112840,0.714842
164,21786,84.770428,0.719699
165,21954,85.424125,0.724528
166,22122,86.077821,0.729357
167,22291,86.735409,0.734214
168,22459,87.389105,0.739043
169,22642,88.101167,0.744303
170,22826,88.817121,0.749592
171,23010,89.533074,0.754881
172,23193,90.245136,0.760141
173,23376,90.957198,0.765401
174,23560,91.673152,0.770690
175,23744,92.389105,0.775978
176,23927,93.101167,0.781238
177,24143,93.941634,0.787447
178,24359,94.782101,0.793655
179,24575,95.622568,0.799864
180,24790,96.459144,0.806044
181,25006,97.299611,0.812252
182,25222,98.140078,0.818461
183,25438,98.980545,0.824669
184,25654,99.821012,0.830878
185,25822,100.474708,0.835707
186,25990,101.128405,0.840536
187,26158,101.782101,0.845364
188,26326,102.435798,0.850193
189,26493,103.085603,0.854993
190,26661,103.739300,0.859822
191,26829,104.392996,0.864651
192,26997,105.046693,0.869480
193,27168,105.712062,0.874395
194,27339,106.377432,0.879310
195,27510,107.042802,0.884225
196,27681,107.708171,0.889140
197,27852,108.373541,0.894055
198,28023,109.038911,0.898970
199,28194,109.704280,0.903886
200,28365,110.369650,0.908801
201,28555,111.108949,0.914262
202,28745,111.848249,0.919723
203,28935,112.587549,0.925184
204,29125,113.326848,0.930645
205,29315,114.066148,0.936107
206,29505,114.805447,0.941568
207,29695,115.544747,0.947029
208,29885,116.284047,0.952490
209,30102,117.128405,0.958728
210,30320,117.976654,0.964994
211,30538,118.824903,0.971260
212,30755,119.669261,0.977497
213,30972,120.513619,0.983734
214,31190,121.361868,0.990000
215,31408,122.210117,0.996266
216,31625,123.054475,1.002503
217,31870,124.007782,1.009545
218,32114,124.957198,1.016559
219,32359,125.910506,1.023601
220,32604,126.863813,1.030643
221,32848,127.813230,1.037656
222,33093,128.766537,1.044698
223,33337,129.715953,1.051712
224,33582,130.669261,1.058754
225,33854,131.727626,1.066572
226,34126,132.785992,1.074390
227,34397,133.840467,1.082180
228,34669,134.898833,1.089998
229,34941,135.957198,1.097816
230,35212,137.011673,1.105605
231,35484,138.070039,1.113423
232,35756,139.128405,1.121242
233,35928,139.797665,1.126185
234,36100,140.466926,1.131129
235,36273,141.140078,1.136102
236,36445,141.809339,1.141046
237,36617,142.478599,1.145989
238,36790,143.151751,1.150962
239,36962,143.821012,1.155906
240,37134,144.490272,1.160850
241,37428,145.634241,1.169300
242,37723,146.782101,1.177779
243,38018,147.929961,1.186259
244,38312,149.073930,1.194709
245,38606,150.217899,1.203160
246,38901,151.365759,1.211639
247,39196,152.513619,1.220118
248,39490,153.657588,1.228569
249,39547,153.879377,1.230207
250,39604,154.101167,1.231845
251,39661,154.322957,1.233484
252,39717,154.540856,1.235093
253,39774,154.762646,1.236732
254,39831,154.984436,1.238370
255,39888,155.206226,1.240008
